 $SEQPAR
 ECHOT = 5.000
 HZPPPM=297.189
 SEQ = 'STEAM'
 $END
 $NMID ID='foo_999_BASELINE_all 001', FMTDAT='(2E13.5)'
 TRAMP= 1.00, VOLUME= 1.5000E+01 $END
  1.13561E+04 -6.99962E+03
  1.40254E+04  1.87462E+03
  7.10758E+03  8.49389E+03
 -6.04706E+02  6.76254E+03
 -1.65952E+03  1.94507E+03
  4.67943E+02 -1.65874E+02
  1.14704E+03  6.03691E+02
 -1.31249E+02  1.45923E+03
 -1.61095E+03  9.43882E+02
 -2.24527E+03 -1.01041E+03
 -1.39170E+03 -2.58265E+03
  2.77035E+02 -2.63570E+03
  1.05636E+03 -1.02936E+03
 -3.61294E+02 -8.34974E+01
 -2.02327E+03 -1.16477E+03
 -1.66780E+03 -2.89833E+03
  1.63518E+02 -2.96093E+03
  1.15876E+03 -1.88311E+03
  9.33233E+02 -8.97190E+02
  2.41985E+02 -1.92825E+02
 -3.81330E+02  9.80716E+01
 -3.42689E+02 -2.86313E+02
  9.67566E+01  3.37245E+01
 -6.91004E+02  1.01460E+03
 -2.27541E+03  7.89714E+02
 -2.18561E+03 -1.02064E+03
 -3.24882E+02 -1.59335E+03
  5.72357E+02 -3.11339E+02
 -1.12654E+02  1.02838E+03
 -9.03362E+02  1.08705E+03
 -1.09034E+03  6.10042E+02
 -1.06864E+03  2.38406E+02
 -6.81742E+02  1.53842E+02
 -2.21912E+02  6.38745E+02
 -5.61708E+02  1.31221E+03
 -1.54296E+03  9.06279E+02
 -1.47535E+03 -3.17254E+02
  2.51557E+01 -6.77651E+02
  8.79633E+02  5.22669E+02
 -5.55846E+01  1.29711E+03
 -9.94868E+02  5.20959E+02
 -4.28455E+02 -5.21467E+02
  1.01478E+03 -6.51006E+02
  1.94227E+03  1.85222E+02
  1.88352E+03  1.50403E+03
  7.07013E+02  2.34948E+03
 -5.67627E+02  1.72601E+03
 -6.29310E+02  3.68602E+02
  2.93728E+02 -2.01612E+02
  8.32359E+02  2.65909E+02
  6.47107E+02  3.78379E+02
  6.71298E+02 -7.82225E+01
  1.30946E+03 -1.83890E+02
  1.63139E+03  5.20770E+02
  1.32640E+03  1.15204E+03
  6.98101E+02  1.17353E+03
  4.78253E+01  8.86133E+02
 -4.95427E+02  2.06261E+02
 -3.22613E+02 -8.13549E+02
  6.78145E+02 -1.41988E+03
  1.54481E+03 -8.89628E+02
  1.43170E+03 -1.72871E+02
  1.00969E+03 -2.22698E+01
  1.02320E+03 -2.29583E+02
  1.05376E+03  4.00176E+01
  6.01970E+02  3.89051E+02
 -3.75060E+00  1.72065E+02
 -1.49153E+02 -5.45405E+02
  2.17759E+02 -1.07248E+03
  7.55577E+02 -9.78491E+02
  1.06490E+03 -4.33104E+02
  7.96023E+02  9.49136E+01
  3.00775E+02  2.14348E+02
 -7.91412E+01  9.96173E+01
 -2.47030E+02  7.65164E+01
 -6.50216E+02  8.93193E+01
 -1.14126E+03 -3.48250E+02
 -1.21247E+03 -1.18996E+03
 -5.34475E+02 -1.90224E+03
  5.31758E+02 -1.87335E+03
  1.22527E+03 -1.02744E+03
  9.52463E+02  1.96281E+01
 -7.29006E+00  3.96675E+02
 -6.35124E+02 -2.02512E+02
 -2.07051E+02 -9.19735E+02
  5.25450E+02 -7.68204E+02
  6.36549E+02 -1.57927E+01
 -1.64326E+00  2.93110E+02
 -2.98296E+02 -7.58322E+01
 -3.31487E+01 -3.68575E+02
  3.20239E+02 -3.01880E+01
  1.19132E+02  4.80768E+02
 -4.20269E+02  5.67314E+02
 -7.90776E+02  2.66031E+02
 -9.11120E+02 -2.67699E+02
 -5.51416E+02 -6.87704E+02
 -7.23598E+01 -6.05516E+02
  9.29358E+01 -2.77085E+02
 -1.72311E+02 -1.72317E+02
 -1.91575E+02 -4.14144E+02
  1.45231E+02 -5.61703E+02
  4.62302E+02 -2.80893E+02
  3.04916E+02  9.39145E+01
 -4.60464E+01  3.23437E+01
  3.67837E+01 -3.19171E+02
  4.20411E+02 -3.74020E+02
  7.10899E+02  7.51455E+01
  4.57832E+02  5.62652E+02
 -1.53968E+02  6.50654E+02
 -5.78407E+02  1.85883E+02
 -4.88868E+02 -3.38408E+02
 -1.61801E+01 -4.92492E+02
  1.40006E+02 -1.88381E+02
 -9.32023E+01 -2.87744E+01
 -2.40936E+02 -3.29045E+02
  8.96668E+00 -6.35193E+02
  4.61368E+02 -4.68141E+02
  4.57306E+02  7.06128E+01
 -7.31652E+01  3.23466E+02
 -5.22815E+02 -1.20609E+01
 -4.36920E+02 -5.90736E+02
  1.19063E+02 -7.48666E+02
  5.24085E+02 -3.44113E+02
  3.24492E+02  3.21615E+02
 -3.19048E+02  4.43552E+02
 -8.33729E+02 -2.33093E+01
 -6.82431E+02 -5.58233E+02
 -2.07182E+02 -7.07422E+02
  5.63965E+01 -3.80083E+02
 -1.13129E+02 -1.98184E+02
 -3.11149E+02 -3.08790E+02
 -1.10629E+02 -5.25869E+02
  3.21705E+02 -3.81641E+02
  4.26161E+02  1.24743E+02
  1.30906E+00  5.96953E+02
 -6.09129E+02  5.64690E+02
 -8.47375E+02  6.36208E+01
 -6.48743E+02 -3.28795E+02
 -3.23817E+02 -3.93030E+02
 -2.06249E+02 -2.10399E+02
 -1.98558E+02 -1.60826E+02
 -1.19316E+02 -1.35114E+02
  2.17517E+01  6.46644E+01
 -9.47263E+01  3.64261E+02
 -4.02535E+02  5.02949E+02
 -7.10618E+02  2.64085E+02
 -6.99549E+02 -1.49760E+02
 -4.13626E+02 -4.05947E+02
  5.79436E+01 -2.85628E+02
  2.50749E+02  1.16175E+02
  5.67145E+01  4.89557E+02
 -2.93301E+02  4.37789E+02
 -3.11831E+02  2.59462E+02
 -1.81555E+02  2.84213E+02
 -1.59493E+02  4.79110E+02
 -4.45157E+02  5.51535E+02
 -6.46712E+02  2.00144E+02
 -4.41785E+02 -2.09381E+02
  1.10763E+02 -2.99964E+02
  4.55730E+02  1.09728E+02
  3.06132E+02  6.11935E+02
 -1.28260E+02  7.43110E+02
 -4.51685E+02  4.30433E+02
 -3.09596E+02  3.23985E+01
 -3.37736E+00 -5.07776E+01
  1.61298E+02  1.10835E+02
  1.07625E+02  2.07366E+02
  3.89100E+01  1.09355E+02
  2.06691E+02 -8.11856E+00
  4.41509E+02  1.25190E+02
  4.56049E+02  4.51279E+02
  1.36791E+02  6.68462E+02
 -2.29384E+02  4.91431E+02
 -3.02545E+02  9.42708E+01
  2.51634E+01 -1.44862E+02
  2.87867E+02 -1.69051E+01
  2.69065E+02  2.89107E+02
  2.05571E+01  3.12632E+02
 -1.12332E+02  1.08075E+02
  3.47012E+01 -6.18684E+01
  1.60627E+02  2.86725E-02
  1.20842E+02  1.07124E+02
  3.29199E+01  4.91616E+01
  6.73149E+00 -1.39491E+02
  2.14173E+02 -2.79912E+02
  4.57392E+02 -1.03460E+02
  3.93165E+02  1.97691E+02
  1.30816E+02  2.58036E+02
 -3.38406E+01  7.09664E+01
  1.70534E+00 -1.48413E+02
  2.92550E+02 -1.82016E+02
  3.95474E+02 -2.12411E+01
  2.74768E+02  1.89914E+02
  5.66418E+01  1.20010E+02
  2.53041E+01 -4.62962E+01
  1.64962E+02 -1.26050E+02
  2.68988E+02  3.27582E+01
  1.59244E+02  1.75430E+02
 -1.04768E+02  1.32042E+02
 -1.93756E+02 -1.64828E+02
  5.45779E+01 -3.42715E+02
  3.42319E+02 -2.59014E+02
  3.14126E+02  6.17785E+01
  6.84113E+01  1.77867E+02
 -9.13540E+01  8.11712E+01
 -9.34432E+01 -8.90340E+01
 -3.64166E+01 -9.48607E+01
 -1.09650E+00 -6.03174E+01
 -8.28383E+01 -5.26636E+01
 -8.08697E+01 -1.84243E+02
  2.15258E+01 -3.05429E+02
  2.75725E+02 -2.54507E+02
  4.20764E+02  9.12067E+00
  2.02891E+02  3.16737E+02
 -1.17707E+02  3.07572E+02
 -2.83576E+02  4.13322E+01
 -1.65124E+02 -1.91231E+02
  4.58743E+01 -1.88392E+02
  1.33191E+02 -8.81881E+01
  9.32553E+01 -4.09908E+01
  5.34108E+01 -5.97784E+01
  1.05202E+02 -1.01737E+02
  1.87297E+02  2.60928E+01
  1.07428E+02  1.51852E+02
 -1.15387E+02  1.14790E+02
 -2.39616E+02 -1.12741E+02
 -1.14635E+02 -3.31349E+02
  1.11510E+02 -3.33972E+02
  2.33702E+02 -1.29548E+02
  1.02639E+02  1.75517E+01
 -2.81000E+01  1.84941E+01
 -8.15776E+01 -1.13915E+02
 -6.88550E+00 -1.73644E+02
  7.60332E+01 -8.88288E+01
 -2.85236E+01  1.82498E+01
 -2.02101E+02 -3.32837E+01
 -1.95341E+02 -2.60587E+02
 -3.01467E+01 -3.28486E+02
  1.69154E+02 -1.93198E+02
  1.30169E+02  1.26078E+01
 -1.82843E+01  7.55550E+01
 -2.04184E+02  3.03910E+01
 -1.48855E+02 -1.13493E+02
 -7.41805E+01 -7.62918E+01
 -6.00506E+01 -1.74480E+01
 -1.29321E+02 -4.09346E+01
 -1.84869E+02 -9.03295E+01
 -1.00971E+02 -1.90367E+02
  6.37442E+01 -9.73588E+01
  6.94993E+01  6.36078E+01
 -8.09437E+01  1.86240E+02
 -2.49128E+02  9.12322E+01
 -1.77328E+02 -1.16108E+02
  5.29674E-03 -1.79548E+02
  1.55473E+02 -3.12544E+01
  1.22941E+02  1.32267E+02
 -6.74492E+01  1.67115E+02
 -1.64190E+02  7.60857E+01
 -7.59080E+01 -3.64059E+01
  1.17013E+01 -3.27205E+01
  3.00220E+01  7.14734E+01
 -2.46241E+01  1.20685E+02
 -9.79855E+01  2.55772E+01
 -4.99024E+01 -6.97640E+01
  1.10347E+02 -3.94765E+01
  8.00508E+01  1.01712E+02
 -1.31572E+01  1.50202E+02
 -1.08718E+02  7.58356E+01
 -9.97869E+01 -6.71944E+01
  1.98955E+01 -1.01439E+02
  6.70488E+01 -5.28383E+00
  4.62110E+01  7.40036E+01
 -9.05836E+00  4.27564E+01
 -7.58385E+01 -3.05828E+01
  7.90017E+00 -7.29577E+01
  5.45981E+01  4.58058E+01
 -1.54537E+01  1.45124E+02
 -1.60375E+02  1.42598E+02
 -1.82910E+02  4.31083E+00
 -6.85742E+01 -1.14049E+02
  7.68795E+01 -7.03584E+01
  1.09035E+02  1.04385E+02
  1.79670E+01  1.75990E+02
 -9.46235E+01  1.35794E+02
 -1.11670E+02  4.74774E+01
 -2.53667E+01  1.43147E+01
 -6.36995E+00  7.50777E+01
 -4.46486E+01  8.02159E+01
 -1.28292E+02  1.68618E+01
 -3.30621E+01 -8.39392E+01
  8.97780E+01 -1.15057E+02
  2.01129E+02  5.68897E-01
  1.94774E+02  1.11675E+02
  1.87617E+01  1.44126E+02
 -5.68678E+01  4.47439E+01
 -1.16714E+01 -5.14961E+01
  6.44228E+01 -6.17066E+01
  9.46848E+01 -2.16595E+01
  2.51405E+01  2.20710E+01
  2.83099E+01 -9.87619E+00
  4.54591E+01 -1.02494E+02
  1.02729E+02 -5.91692E+01
  1.24924E+02  2.79863E+01
  8.86497E+00  6.42862E+01
 -7.94551E+01 -4.03169E+00
 -4.27103E+01 -1.08641E+02
  4.71321E+01 -1.37909E+02
  8.92115E+01 -3.75926E+01
  6.39108E+01  2.40119E+01
 -5.53177E+01  6.21339E+01
 -6.95710E+01 -4.38484E+01
 -4.43479E+01 -6.18026E+01
  4.53952E+01  5.33258E-01
  1.05455E+01  8.24474E+01
 -1.05645E+02  8.93396E+01
 -1.20011E+02 -1.86770E+01
 -5.87037E+01 -6.56076E+01
  4.06256E+01 -6.69663E+01
  9.28379E+01  1.26843E+01
  6.86588E+01  1.19245E+02
 -4.21931E+01  8.68955E+01
 -8.20250E+01  6.22494E+01
  2.13176E+01  3.33393E+00
  4.81939E+01 -1.24091E+01
  2.60641E+01  8.45352E+01
 -1.50427E+01  5.52903E+01
 -1.72895E+01 -1.75192E+01
  9.99559E+00 -3.54053E+01
  6.50209E+01 -4.85630E+00
  7.65342E+01  5.96846E+01
 -2.20573E+01  2.16981E+01
  3.57882E+00 -6.16387E+01
  5.27515E+01 -1.27649E+02
  1.36724E+02 -8.69851E+01
  1.25920E+02 -5.75921E+00
  4.56449E+01  7.56865E+00
 -6.40273E+01 -2.63823E+01
 -3.21715E+01 -1.03914E+02
  2.98366E+01 -1.37940E+02
  7.41019E+00 -4.56278E+01
 -2.04293E+01 -1.84147E+01
 -8.11474E+01 -7.37542E+01
 -7.54505E+01 -1.26823E+02
  1.56661E+00 -1.58355E+02
  2.54601E+01 -9.69207E+01
 -1.08353E+01 -1.07795E+01
 -5.98756E+01 -4.08334E+01
 -1.38440E+02 -6.22081E+01
 -7.10449E+01 -9.76192E+01
 -4.28702E+01 -8.65774E+01
 -3.97197E+01  1.08992E+01
 -6.53576E+01  2.65518E+01
 -7.11471E+01 -2.91808E+00
 -6.91719E+01 -4.39708E+00
  1.99612E+00 -1.19459E+01
  4.04994E+00  7.43772E+01
 -5.68446E+01  9.26666E+01
 -8.64469E+01  6.34347E+01
 -3.34820E+01  8.66747E+00
  2.13044E+01 -2.62948E+01
  8.84519E+01  7.08802E+01
  5.76096E+01  1.07673E+02
  4.20642E+01  1.13755E+02
  1.20364E+01  2.80925E+01
