 $SEQPAR
 ECHOT = 5.000
 HZPPPM=297.189
 SEQ = 'STEAM'
 $END
 $NMID ID='foo_999_BASELINE_ts3 001', FMTDAT='(2E13.5)'
 TRAMP= 1.00, VOLUME= 1.5000E+01 $END
  1.06969E+04 -8.01394E+03
  1.41039E+04  7.56455E+02
  7.72034E+03  8.01780E+03
 -3.41208E+02  6.82820E+03
 -1.73938E+03  1.93611E+03
  2.32508E+02 -3.24881E+02
  1.17774E+03  4.56327E+02
 -6.43968E+01  1.55227E+03
 -1.66995E+03  1.17278E+03
 -2.50661E+03 -8.56501E+02
 -1.69470E+03 -2.48705E+03
  8.53812E+00 -2.64556E+03
  9.33658E+02 -9.47152E+02
 -5.60910E+02  6.98524E+01
 -2.30779E+03 -9.58341E+02
 -1.98924E+03 -2.66553E+03
 -1.87758E+02 -2.85077E+03
  8.33071E+02 -1.78771E+03
  6.48069E+02 -9.56055E+02
  1.63111E+02 -1.97075E+02
 -3.28429E+02  2.61692E+02
 -3.91641E+02 -8.66765E+01
  6.93058E+01  1.22588E+02
 -5.48638E+02  1.21472E+03
 -2.13265E+03  1.18235E+03
 -2.30141E+03 -6.39214E+02
 -4.78995E+02 -1.50670E+03
  6.50466E+02 -4.49024E+02
  1.74533E+02  1.11306E+03
 -6.31425E+02  1.32383E+03
 -9.56070E+02  8.14216E+02
 -1.06255E+03  3.01002E+02
 -5.85513E+02  1.82109E+02
  2.80475E+01  5.95642E+02
 -2.27397E+02  1.40691E+03
 -1.30743E+03  1.10043E+03
 -1.55443E+03 -2.37754E+02
 -3.58097E+01 -8.07569E+02
  1.10194E+03  3.28780E+02
  2.18969E+02  1.29299E+03
 -9.09416E+02  6.51181E+02
 -5.17024E+02 -5.07759E+02
  9.65489E+02 -9.33412E+02
  2.11607E+03 -1.84496E+02
  2.21707E+03  1.25047E+03
  9.94940E+02  2.20832E+03
 -3.52289E+02  1.69215E+03
 -5.43876E+02  3.44623E+02
  3.04149E+02 -3.06622E+02
  8.81561E+02  1.82881E+02
  7.35007E+02  2.97976E+02
  6.15225E+02 -1.53415E+02
  1.24583E+03 -4.44611E+02
  1.72687E+03  1.23592E+02
  1.50480E+03  8.55766E+02
  8.95954E+02  9.85810E+02
  2.32039E+02  8.27830E+02
 -4.37354E+02  1.80011E+02
 -4.29337E+02 -8.23706E+02
  3.73473E+02 -1.54188E+03
  1.26361E+03 -1.22189E+03
  1.37453E+03 -4.90468E+02
  9.63226E+02 -3.03734E+02
  9.03706E+02 -4.58327E+02
  9.51373E+02 -1.62211E+02
  5.60171E+02  1.70696E+02
 -5.05665E+01  1.39038E+02
 -3.25794E+02 -5.36019E+02
 -1.08713E+02 -1.17363E+03
  5.39522E+02 -1.16076E+03
  9.62844E+02 -6.42732E+02
  7.88526E+02 -4.28242E+01
  2.39532E+02  1.71145E+02
 -6.59133E+01  1.03393E+02
 -1.31718E+02  1.57048E+02
 -5.15413E+02  3.33152E+02
 -1.16144E+03  6.03255E+00
 -1.50707E+03 -8.64573E+02
 -9.05174E+02 -1.76072E+03
  2.59646E+02 -1.86891E+03
  1.08728E+03 -1.08034E+03
  7.97365E+02 -1.69162E+02
  5.17617E+01  3.34515E+02
 -4.91105E+02 -1.15590E+02
 -2.96401E+02 -7.91951E+02
  4.39892E+02 -7.72409E+02
  6.40372E+02 -2.21330E+02
  2.30607E+02  2.03250E+02
 -1.20792E+02  1.30309E+01
  2.37586E+01 -4.30122E+02
  3.63188E+02 -2.14525E+02
  3.49257E+02  4.03872E+02
 -1.49462E+02  6.54281E+02
 -6.23299E+02  4.81056E+02
 -9.65331E+02 -1.55700E+02
 -6.82267E+02 -6.38358E+02
 -1.87159E+02 -7.05590E+02
 -1.65835E+00 -2.93489E+02
 -2.84547E+02 -2.21301E+02
 -3.61525E+02 -3.91322E+02
 -7.56190E+01 -6.45038E+02
  3.89555E+02 -4.20672E+02
  1.72821E+02  4.63366E+01
 -2.03201E+02 -2.20466E+01
 -2.01987E+02 -5.14297E+02
  1.85954E+02 -5.33808E+02
  5.85120E+02 -1.12238E+02
  4.39458E+02  4.45372E+02
 -1.43418E+02  6.14873E+02
 -6.69521E+02  3.60567E+02
 -7.48575E+02 -1.33798E+02
 -2.84608E+02 -4.21552E+02
  9.01722E+01 -2.47288E+02
 -2.05179E+02  5.65312E+01
 -3.51983E+02 -1.70984E+02
 -2.52926E+02 -5.78083E+02
  2.98662E+02 -5.13583E+02
  4.65332E+02  2.25507E+01
  1.09707E+02  3.53625E+02
 -4.56592E+02  2.61804E+02
 -4.50100E+02 -4.25888E+02
  1.30966E+01 -7.47788E+02
  5.25510E+02 -4.79070E+02
  4.58185E+02  2.55156E+02
 -9.47589E+00  5.40017E+02
 -6.74259E+02  2.23062E+02
 -7.49118E+02 -3.43467E+02
 -2.97167E+02 -6.79573E+02
  3.33636E+01 -4.21348E+02
 -6.24448E+01 -1.83744E+02
 -3.22487E+02 -1.66712E+02
 -2.43618E+02 -5.39664E+02
  2.19552E+02 -5.54546E+02
  4.34195E+02 -5.24502E+01
  1.43162E+02  5.86979E+02
 -5.08117E+02  7.64787E+02
 -8.51774E+02  3.70830E+02
 -8.38862E+02 -1.21741E+02
 -5.14624E+02 -2.26235E+02
 -2.68182E+02 -8.07625E+01
 -2.80244E+02 -7.31760E+01
 -2.46874E+02 -8.45688E+01
 -2.20098E+01  1.02607E+02
 -4.07292E+01  4.21560E+02
 -2.81112E+02  6.57343E+02
 -5.85817E+02  4.86919E+02
 -7.11959E+02  1.65579E+02
 -5.33453E+02 -2.15564E+02
 -3.86350E+01 -2.68972E+02
  3.08729E+02  1.01150E+02
  2.74709E+02  4.50075E+02
 -5.05859E+01  4.74580E+02
 -1.59985E+02  3.84854E+02
 -3.20074E+01  3.58925E+02
  9.37659E+01  4.53105E+02
 -2.00437E+02  6.91445E+02
 -5.53932E+02  4.02651E+02
 -4.57278E+02 -7.30655E+01
 -9.99617E-01 -3.39614E+02
  5.23876E+02 -1.33117E+02
  5.27367E+02  4.62597E+02
  1.77347E+02  6.50661E+02
 -1.95561E+02  5.55031E+02
 -2.07049E+02  1.51438E+02
  1.54093E+01 -1.38836E+02
  2.34523E+02 -1.90013E+01
  1.70917E+02  9.96504E+01
  1.17623E+02 -2.10643E+01
  2.43869E+02 -1.01514E+02
  3.95366E+02 -1.68132E+02
  5.91735E+02  2.07818E+02
  3.53805E+02  5.42121E+02
 -2.97337E+01  4.80347E+02
 -2.34589E+02  1.68801E+02
 -4.46689E+01 -1.68037E+02
  2.94231E+02 -2.01362E+02
  3.90736E+02  1.80023E+02
  1.24200E+02  2.20354E+02
 -4.44332E+01  8.66255E+01
 -2.85913E+01 -1.07635E+02
  1.78521E+02 -1.84038E+02
  1.92378E+02  3.47457E+01
  8.56430E+01 -8.52589E+01
  1.44731E+01 -1.15217E+02
  4.36222E+01 -4.19477E+02
  4.64142E+02 -2.78277E+02
  4.56930E+02  2.80765E+01
  2.43784E+02  2.62055E+02
 -3.20405E+01  9.97447E+01
 -1.04642E+02 -1.26806E+02
  2.13925E+02 -2.61222E+02
  3.48315E+02 -1.09566E+02
  3.56513E+02  1.20829E+02
  1.22364E+02  1.31684E+02
  1.40113E+00 -8.72228E+00
  1.31110E+02 -9.05843E+01
  2.42621E+02  3.46749E+01
  2.12766E+02  1.14529E+02
  1.43666E+01  1.87902E+02
 -1.70887E+02 -1.03018E+02
  4.33631E+01 -3.40121E+02
  3.34783E+02 -3.30597E+02
  4.09989E+02 -2.22557E+01
  3.66873E+02  9.44520E+01
  7.46569E+01  8.48887E+01
  6.94714E+00 -3.31580E+01
  4.36502E+01 -4.77977E+01
  1.37602E+02 -4.45845E+01
  4.31672E+00 -6.54760E+01
 -1.37301E+02 -1.25417E+02
 -1.13179E+02 -3.03177E+02
  2.15449E+02 -4.64511E+02
  4.00029E+02 -2.25509E+02
  3.49319E+02  8.85768E+01
  3.22390E+00  2.69392E+02
 -3.02076E+02  4.23148E+01
 -3.41557E+02 -2.26589E+02
 -1.02171E+02 -2.63178E+02
  1.78796E+01 -3.37035E+02
 -1.73292E+01 -2.65549E+02
 -8.31306E+01 -1.26259E+02
 -6.81983E+01 -2.25390E+02
  6.12906E+01 -1.05984E+02
  2.87579E+01  7.30794E+01
 -2.00302E+02  1.39949E+02
 -4.30724E+02  7.17137E+01
 -3.88101E+02 -1.97742E+02
 -1.93436E+02 -3.33305E+02
  9.60645E+01 -2.12885E+02
  5.03974E+01  4.15880E+00
 -9.09676E+01  1.11032E+02
 -1.44928E+02  6.50822E+01
 -9.84681E+01 -6.60088E+01
  5.63677E+01 -2.53005E+01
  2.93388E+01  1.56870E+02
 -1.52167E+02  1.53552E+02
 -2.84597E+02 -5.70057E+01
 -9.75191E+01 -2.94069E+02
  1.33551E+02 -1.86506E+02
  2.14789E+02 -6.58660E+00
  1.03296E+02  8.07388E+01
 -1.14249E+02  1.76168E+02
 -6.19558E+01 -2.52970E+01
 -8.17465E-01  1.11336E+01
 -2.32755E+01  4.40223E+01
 -5.86243E+01 -2.27791E+01
 -1.63010E+02 -4.95937E+01
 -1.81872E+02 -2.14505E+02
 -3.92297E+00 -1.89538E+02
  1.36365E+02 -1.08609E+02
  6.25023E+01  1.17334E+02
 -1.54701E+02  3.93550E+01
 -2.49016E+02 -1.40931E+02
 -1.04683E+02 -2.64330E+02
  9.75668E+01 -1.68506E+02
  1.11546E+02 -5.49701E+01
  2.46644E+01  4.11209E+01
 -9.51830E+01  1.45114E+02
 -1.59978E+02 -1.21130E+02
  3.31484E+01 -7.68821E+01
  5.56699E+01  5.59729E+01
 -7.04741E+01  4.30689E+01
 -9.86809E+01  7.80305E+01
 -9.16413E+01 -2.07034E+00
  3.62061E+01  1.50174E+01
  4.19207E+01  3.83420E+01
 -2.03218E+01  2.04644E+02
 -1.52554E+02  2.34421E+02
 -9.07700E+01  8.03857E+01
  3.26804E+01 -1.66709E+01
  8.55609E+01  5.11175E+01
  9.01743E+01  1.10751E+02
  5.31803E+01  9.48315E+01
 -4.75787E+01  9.82318E+01
  1.68829E+01  1.18149E+00
  7.13197E+01  9.18688E+01
  7.14042E+01  1.91040E+02
 -3.95342E+01  1.80987E+02
 -1.85927E+02  7.92228E+01
 -3.87974E+01 -4.16712E+01
 -1.43740E+01 -1.05292E+02
  1.87212E+02  4.04949E+01
  1.58834E+02  1.08377E+02
 -1.14387E+01  1.70220E+02
 -6.21586E+01  1.47151E+02
  4.67834E+01  1.59946E+01
  2.44701E+01  3.02156E+01
  2.59189E+01  2.43014E+01
 -1.04222E+02  5.10393E+01
 -8.87204E+01 -7.68977E+01
  5.42908E+01 -1.74099E+02
  1.63209E+02 -1.77948E+02
  2.27290E+02 -2.80322E+01
  6.89933E+01  8.09162E+01
 -4.21940E+01  9.91533E+01
  3.69699E+01  1.61571E+01
  3.30754E+01 -1.37617E+02
  8.32441E+01 -8.93757E+01
  2.24159E+01 -3.01558E+01
  1.44772E+01 -8.77673E+01
 -2.54933E+01 -1.34727E+02
  1.00513E+02 -5.64773E+01
  9.81448E+01 -2.53990E+01
  1.47112E+02  6.88652E+01
  2.22361E+00  4.01110E+01
 -1.30291E+01 -1.14560E+02
 -1.55776E+01 -1.24140E+02
  1.37208E+02 -1.65446E+02
  1.55531E+02 -1.03457E+01
  1.08985E+01  5.85394E+01
 -7.41713E+01 -9.22097E+01
 -8.27098E+01 -3.73078E+01
  7.42404E+01  2.07626E+01
  3.56854E+01  1.38099E+01
 -2.38186E+01  5.87009E+01
 -1.03197E+02 -1.90591E+01
 -3.88892E+01 -6.64404E+01
 -7.55398E+01 -2.38475E+02
  7.09290E+01 -1.71580E+02
  2.72563E+01  2.04660E+01
 -8.39881E+01  9.97602E+01
 -1.31478E+02  3.83815E+01
 -7.14872E+01 -1.14909E+00
 -8.61909E+01 -2.01604E+01
  3.24991E+00  7.88862E+01
 -1.40998E+02  1.84008E+01
 -2.46210E+02  5.56529E+01
 -1.49192E+02  6.00978E+01
 -9.79685E+01  1.26621E+01
  1.03711E+01  1.31808E+02
 -1.23550E+02  9.50807E+01
 -1.45836E+01  5.94391E+01
 -1.25893E+02  7.83303E+00
  1.30131E+00  4.92208E+01
  1.48178E+02  1.13910E+02
  1.34714E+02  9.37207E+01
 -4.27954E+01  6.33857E+01
  5.79470E+01  5.52897E+01
  9.97873E+01 -2.18012E+01
  1.42629E+02 -2.09855E+01
  1.46737E+02  8.42062E+01
  9.31446E+01  1.16740E+01
  4.41754E+01 -5.60464E+01
  1.19788E+02 -4.23377E+01
  1.68710E+02 -1.66435E+02
  2.66481E+02 -9.47401E+01
  6.03890E+01 -1.95361E+01
  2.16141E+01  1.83322E+01
  7.48064E+01 -1.48671E+02
  5.88328E+01 -1.68922E+02
  9.38800E+01 -3.97924E+01
 -9.08393E+00 -8.87938E+01
 -1.63325E+01 -5.48481E+01
 -6.43931E+01 -1.26417E+02
  5.85831E+01 -9.74671E+01
 -4.13389E+01 -9.41992E+00
 -1.35742E+02  2.25914E+01
 -1.38209E+02  8.47152E+01
 -1.09661E+02  5.51205E+01
 -1.92889E+02 -7.51468E+01
 -5.99527E+01 -9.24616E+01
 -2.47977E+01  3.19474E+01
 -7.30851E+01  1.25928E+02
 -1.79567E+02  5.11738E+01
