 $SEQPAR
 ECHOT = 5.000
 HZPPPM=297.189
 SEQ = 'STEAM'
 $END
 $NMID ID='foo_999_BASELINE_ts4 001', FMTDAT='(2E13.5)'
 TRAMP= 1.00, VOLUME= 1.5000E+01 $END
  1.09125E+04 -7.97152E+03
  1.45296E+04  2.83734E+02
  8.46281E+03  7.38126E+03
  9.02425E+02  6.57079E+03
 -8.55036E+02  2.03376E+03
  8.04793E+02 -2.76497E+02
  1.53735E+03  2.37584E+02
  3.33486E+02  1.15988E+03
 -1.15376E+03  7.98118E+02
 -1.97680E+03 -9.03300E+02
 -1.58527E+03 -2.56152E+03
 -3.47922E+01 -2.98275E+03
  1.05698E+03 -1.65546E+03
 -4.53871E+01 -3.91177E+02
 -2.07039E+03 -1.06379E+03
 -2.14552E+03 -2.93115E+03
 -3.07092E+02 -3.35331E+03
  9.79562E+02 -2.48882E+03
  8.82625E+02 -1.36670E+03
  1.35047E+02 -5.17570E+02
 -5.52681E+02 -2.80385E+02
 -4.83334E+02 -5.53559E+02
  4.46027E+01 -2.59583E+02
 -7.64907E+02  8.65133E+02
 -2.40801E+03  8.89339E+02
 -2.47105E+03 -8.68699E+02
 -8.39196E+02 -1.61269E+03
  1.69890E+02 -4.87044E+02
 -2.97004E+02  8.42327E+02
 -9.11207E+02  1.00184E+03
 -1.15949E+03  7.69360E+02
 -1.23595E+03  5.52501E+02
 -9.50894E+02  3.35921E+02
 -3.97585E+02  6.82224E+02
 -5.40814E+02  1.37761E+03
 -1.44332E+03  1.23634E+03
 -1.57123E+03  7.63345E+01
 -2.92825E+02 -4.93073E+02
  7.97048E+02  3.73735E+02
  1.36508E+02  1.32984E+03
 -8.86115E+02  8.21614E+02
 -5.61673E+02 -3.28908E+02
  7.15089E+02 -7.87859E+02
  1.86893E+03 -1.50227E+02
  2.08176E+03  1.02635E+03
  1.26194E+03  2.18125E+03
 -4.78998E+01  1.93383E+03
 -5.07758E+02  6.74622E+02
  2.02298E+02 -1.51369E+02
  9.18314E+02  1.38170E+01
  7.64903E+02  1.83511E+02
  7.43206E+02 -1.99761E+02
  1.27537E+03 -3.99564E+02
  1.61314E+03  1.99815E+02
  1.53927E+03  7.65980E+02
  9.47359E+02  9.61035E+02
  3.03259E+02  9.08869E+02
 -5.78839E+02  3.90369E+02
 -5.99888E+02 -7.37009E+02
  2.99874E+02 -1.65636E+03
  1.27307E+03 -1.22873E+03
  1.24934E+03 -4.47788E+02
  8.44054E+02 -3.50692E+02
  8.77685E+02 -6.18561E+02
  1.11107E+03 -3.33295E+02
  6.90301E+02  2.24117E+02
 -5.02368E+01  1.63330E+02
 -3.25746E+02 -5.48242E+02
 -9.61715E+01 -1.10543E+03
  3.43634E+02 -1.21392E+03
  7.65259E+02 -7.62755E+02
  8.17914E+02 -2.67561E+02
  3.69756E+02  6.61409E+01
 -9.62892E+01  1.06246E+02
 -2.99981E+02  1.97598E+02
 -6.90320E+02  2.29674E+02
 -1.25083E+03  2.23739E+01
 -1.49506E+03 -6.79772E+02
 -1.29017E+03 -1.47383E+03
 -2.62726E+02 -2.00408E+03
  8.41695E+02 -1.46081E+03
  9.04582E+02 -3.05312E+02
  9.70775E+01  5.84733E+02
 -8.27822E+02  9.03393E+01
 -6.47159E+02 -8.02388E+02
  1.62570E+02 -9.01891E+02
  5.18005E+02 -2.02824E+02
  4.41450E+01  3.66011E+02
 -3.77635E+02  1.05779E+02
 -2.20150E+02 -3.02374E+02
  2.06242E+02 -6.97726E+01
  3.10659E+02  5.13521E+02
 -2.31309E+02  7.85786E+02
 -7.07323E+02  5.89824E+02
 -9.03318E+02  1.86865E+02
 -7.33025E+02 -3.22197E+02
 -2.81158E+02 -4.39366E+02
  1.34486E+01 -2.99827E+02
 -1.69484E+02 -1.01410E+02
 -2.27347E+02 -1.95766E+02
 -1.03299E+02 -5.12087E+02
  3.37898E+02 -3.92508E+02
  4.82739E+02  3.76910E-01
  1.47480E+02  1.21914E+02
 -2.56610E+01 -2.00822E+02
  3.07773E+02 -4.99332E+02
  7.61622E+02 -1.97839E+02
  7.31714E+02  3.02748E+02
  2.65929E+02  7.22267E+02
 -3.79264E+02  3.52144E+02
 -4.43262E+02 -2.46039E+02
 -1.55102E+02 -5.27488E+02
  8.55295E+01 -2.79791E+02
  2.69360E+01 -1.25634E+02
 -2.52133E+02 -2.84647E+02
 -1.57011E+02 -6.28582E+02
  2.55603E+02 -6.87461E+02
  4.23971E+02 -1.39715E+02
  1.02809E+02  3.08161E+02
 -4.56881E+02  1.60198E+02
 -5.94441E+02 -3.69728E+02
 -1.37455E+02 -7.75912E+02
  3.43912E+02 -5.59135E+02
  4.77320E+02  9.66528E+01
 -1.36003E+02  4.39741E+02
 -6.99660E+02  2.91263E+02
 -8.80195E+02 -3.17304E+02
 -5.20671E+02 -5.33415E+02
 -1.89540E+02 -3.65991E+02
 -2.73657E+02 -1.32857E+02
 -5.33943E+02 -1.86571E+02
 -4.04380E+02 -4.59305E+02
  1.27900E+02 -5.17760E+02
  4.18423E+02 -8.43479E+01
  2.26092E+02  4.77812E+02
 -3.02468E+02  7.16467E+02
 -7.87242E+02  4.16674E+02
 -7.18889E+02  4.61543E+01
 -5.18827E+02 -2.31596E+02
 -3.08251E+02 -1.53591E+02
 -2.12915E+02 -9.80052E+01
 -1.58391E+02 -2.99491E+01
 -1.34982E+01 -2.41627E+01
  1.03749E+02  3.02564E+02
 -7.56435E+01  5.76869E+02
 -5.37665E+02  5.99866E+02
 -7.03839E+02  1.52622E+02
 -5.31419E+02 -2.02754E+02
 -1.01500E+02 -3.33549E+02
  2.85897E+02 -3.51846E+01
  3.40542E+02  3.83851E+02
 -6.63472E+01  5.36374E+02
 -1.36555E+02  2.90807E+02
 -1.01846E+01  2.59438E+02
  1.08417E+02  4.78917E+02
 -9.25691E+01  7.02700E+02
 -4.82678E+02  4.51853E+02
 -4.75288E+02 -3.83632E+00
 -7.32314E+01 -3.68996E+02
  4.82729E+02 -1.67530E+02
  5.85857E+02  3.47452E+02
  3.19414E+02  6.79030E+02
 -1.04500E+02  5.15739E+02
 -2.35925E+02  4.19179E+01
  3.70176E+01 -5.48311E+01
  2.38984E+02  1.29036E+01
  2.11778E+02  9.37067E+01
  1.72841E+02  3.11133E+01
  2.91660E+02 -1.97439E+02
  5.78781E+02 -1.56286E+02
  6.56814E+02  1.06497E+02
  5.67633E+02  4.57366E+02
  8.08326E+01  5.55867E+02
 -1.57956E+02  2.21023E+02
 -1.59532E+01 -1.82986E+02
  2.78449E+02 -2.21774E+02
  3.59778E+02  3.15540E+01
  1.22208E+02  1.75168E+02
 -2.13827E+01  1.98050E+02
 -1.24274E+02 -1.05489E+02
  1.03516E+02 -6.66059E+01
  7.09113E+01 -2.20399E+01
  1.51769E+01  1.31290E-01
 -1.17893E+02 -8.93509E+01
 -2.37473E+01 -3.41896E+02
  2.77112E+02 -3.35070E+02
  3.82694E+02 -6.75718E+01
  2.73561E+02  2.09061E+02
 -5.97249E+01  1.25739E+02
 -1.27479E+02 -1.07179E+02
  1.31689E+02 -3.00489E+02
  2.82780E+02 -1.56530E+02
  3.28442E+02  4.39958E+01
  1.25486E+02  1.75401E+02
 -4.99384E+01  6.18086E+01
 -1.83627E+01 -4.85064E+01
  2.46857E+02 -4.71783E+01
  2.60585E+02  6.07528E+01
 -1.82872E+01  2.87490E+02
 -2.35747E+02  1.26346E+02
 -1.57288E+02 -2.47773E+02
  1.46336E+02 -3.03763E+02
  4.12282E+02 -8.94161E+01
  2.19963E+02  1.94491E+02
  3.50174E+01  1.92634E+02
 -1.07275E+02  6.74400E+01
 -1.18088E+02 -1.13230E+01
  2.33090E+00 -3.60360E+01
 -6.46782E+01  5.02120E+01
 -1.54354E+02 -1.22149E+02
 -1.64529E+02 -3.55223E+02
  1.17028E+02 -4.39492E+02
  3.41478E+02 -3.04018E+02
  4.19299E+02  9.85084E+01
  8.04736E+01  1.88771E+02
 -1.20396E+02  2.21229E+02
 -2.19592E+02 -1.91608E+02
 -1.36067E+02 -2.33284E+02
  7.93364E+01 -2.14708E+02
  3.81647E+01 -1.78312E+02
 -5.62405E+01 -1.48730E+02
  5.56587E+00 -2.31936E+02
  1.57911E+02 -1.22102E+02
  7.71111E+01  3.16720E+01
 -7.20407E+01  9.02550E+01
 -2.92954E+02 -4.33273E+01
 -3.02428E+02 -2.50512E+02
 -2.38450E+02 -3.87407E+02
  6.49804E+01 -2.61574E+02
  6.73522E+01 -3.45063E+00
 -1.03289E+02  4.23506E+01
 -1.74523E+02 -1.04977E+01
 -1.61321E+02 -1.06293E+02
 -1.50066E+02 -8.12471E+01
 -7.21935E+01  1.31892E+02
 -1.30806E+02  1.19515E+02
 -2.81553E+02 -9.01134E+01
 -1.84161E+02 -1.07264E+02
  3.38827E+01 -2.50242E+02
  5.44983E+01 -8.82743E+00
  7.72108E+01  5.32975E+01
 -4.65984E+01  2.09840E+02
 -1.83966E+02  1.31488E+02
 -1.19683E+02  4.16374E+01
 -4.47726E+01 -1.79349E+01
 -1.04348E+02  1.43107E+02
 -1.55529E+02  1.05078E+02
 -1.65722E+02 -7.25787E+01
  2.07321E+01 -3.38561E+01
  3.69001E+01  8.29100E+01
 -2.67262E+00  2.30448E+02
 -9.11454E+01  3.17043E+02
 -2.56247E+02  1.11264E+02
 -1.48273E+02 -6.31111E+00
  1.15168E+02 -9.92379E+01
  1.89518E+02  4.06133E+01
  1.10726E+02  2.56954E+02
 -9.72819E+01  2.48690E+02
 -4.73716E+01  5.94781E+01
 -3.05755E+01  5.08112E+01
  1.34145E+02  1.09122E+02
  1.20754E+02  8.39630E+01
 -7.56405E+01  1.57394E+02
 -4.31484E+01 -1.37043E+01
 -4.21501E+01 -4.57461E+01
  1.32961E+02  3.66796E+01
  1.46737E+02  8.32755E+01
  2.63148E+00  1.66342E+02
 -1.04088E+02  1.12680E+02
  3.94058E+00 -1.22490E+02
  1.39598E+02 -1.55460E+02
  1.19993E+02 -4.03050E+01
  4.09362E+01  7.70386E+00
  2.08433E+01 -3.64288E+01
  3.24607E+01 -9.72864E+01
  1.08450E+02 -6.20661E+01
  1.26713E+02 -9.66076E-01
  8.00953E+01  1.45593E+02
 -1.35686E+02  3.26951E+01
 -9.63055E+01 -9.34955E+01
  3.15108E+01 -1.67721E+02
  1.72870E+02 -9.28556E+01
  1.18521E+02  9.39538E+01
  4.40775E+01  1.71330E+02
 -6.64445E+01  1.20657E+02
 -9.96616E+01  2.33727E+01
 -3.59820E+01  5.35979E+01
 -1.50275E+01  1.41484E+02
 -1.43886E+02  1.07548E+02
 -2.31833E+02  4.06799E+01
 -1.80452E+02 -3.33386E+01
  1.83146E+01 -8.98290E+01
  1.86924E+02  5.21124E+01
  6.33799E+01  2.03154E+02
 -5.80732E+01  2.20311E+02
 -1.23725E+02  9.05439E+01
 -9.59996E+01  4.35979E+01
  1.38007E+01  5.83388E+01
  2.35929E+01  1.65486E+02
 -4.88927E+01  1.31452E+02
 -3.88175E+01  1.16367E+00
 -6.40562E+01 -1.06365E+01
  6.68481E+01  7.37050E+01
  5.01526E+01  6.18750E+01
  4.83316E+01  1.24178E+02
 -3.69796E+01  8.29007E+01
 -1.04704E+02 -5.53610E+01
  1.06888E+02 -5.38489E+01
  1.22229E+02 -5.33176E+01
  1.98269E+02  8.30534E+01
  8.59628E+01 -1.02482E+02
  5.22699E+01 -5.88646E+01
  6.18243E+01 -5.27544E+01
  8.91883E+01 -3.90324E+01
  3.51911E+01  4.00705E+01
 -7.16308E+01  1.14727E+01
 -9.44022E+01 -1.16394E+02
  1.55406E+01 -2.04160E+02
  4.11377E+01 -2.14821E+02
  2.78747E+01 -1.06679E+02
 -1.92477E+01 -3.91375E+01
 -8.50319E+01 -3.45087E+01
 -7.09120E+01 -1.50067E+02
 -6.20477E+01 -2.09093E+02
 -1.07653E+02 -1.11665E+02
 -9.27920E+01 -5.22280E+01
 -1.89531E+02 -5.18107E+01
 -1.55900E+02 -7.73482E+01
 -6.73541E+01 -6.39381E+01
 -1.05362E+02 -4.63518E+01
 -1.78074E+02  6.63720E+01
 -1.53951E+02  2.03811E+01
 -1.44207E+02 -2.50105E+01
 -7.00714E+01 -3.28641E+01
 -1.88124E+01  2.85489E+01
  1.72455E+00  1.35449E+01
  2.13790E+01  1.02950E+02
 -4.38041E+00  1.35235E+02
  1.48099E+00  6.67116E+01
  3.92218E+01  6.49289E+01
  7.67878E+01  1.02485E+02
  4.08966E+01  1.25270E+02
  2.83022E+01  6.49554E+01
  5.25505E+01 -3.16695E+01
  1.25028E+02 -5.62301E+01
  1.27476E+02  9.00252E+01
  1.34720E+02  4.68902E+01
 -4.15586E+00  8.24445E+00
  7.30385E+01 -1.21578E+01
  4.27406E+01 -1.79674E+01
  8.35904E+01 -3.89870E+01
  1.19741E+01  1.11980E+01
 -7.81580E+01 -3.42544E+01
 -5.52730E+01 -6.20771E+01
 -7.15851E+01 -2.69935E+01
 -7.90941E-02 -9.03554E+01
 -2.63752E+01 -3.94580E+01
 -1.03849E+02  5.27280E+01
 -9.63656E+01 -1.99053E+01
 -1.18675E+02 -9.24005E+01
 -8.89483E+01 -1.58947E+02
 -3.62982E+01 -3.43095E+01
 -7.50311E+01 -8.04087E+00
 -1.20270E+02  4.25014E+01
