 $SEQPAR
 ECHOT = 5.000
 HZPPPM=297.189
 SEQ = 'STEAM'
 $END
 $NMID ID='PATIENT_999_BASELINE_ts1 001', FMTDAT='(2E13.5)'
 TRAMP= 1.00, VOLUME= 1.5000E+01 $END
  1.11418E+04 -7.21102E+03
  1.38516E+04  1.85853E+03
  6.81424E+03  8.65353E+03
 -1.15009E+03  6.73008E+03
 -2.05927E+03  1.79643E+03
  2.66849E+02 -3.09273E+02
  9.29095E+02  5.88145E+02
 -3.61796E+02  1.49195E+03
 -1.94417E+03  1.05214E+03
 -2.56017E+03 -1.00676E+03
 -1.54454E+03 -2.60625E+03
  2.01171E+02 -2.50027E+03
  8.75100E+02 -8.13958E+02
 -6.66155E+02  1.19400E+02
 -2.23422E+03 -1.04595E+03
 -1.71273E+03 -2.73026E+03
  1.36009E+02 -2.56881E+03
  9.04638E+02 -1.40853E+03
  7.36663E+02 -5.51669E+02
  1.16498E+02  8.54280E+01
 -4.61963E+02  5.61280E+02
 -4.11034E+02  1.72736E+02
 -7.89218E+01  3.70175E+02
 -6.80926E+02  1.26439E+03
 -2.20051E+03  1.16175E+03
 -2.10712E+03 -6.76290E+02
 -2.88208E+02 -1.32899E+03
  7.49451E+02 -8.11408E+01
  1.52427E+02  1.19937E+03
 -6.81829E+02  1.38157E+03
 -9.81893E+02  7.55628E+02
 -9.72572E+02  3.33951E+02
 -5.48121E+02  1.69552E+02
  8.81135E+01  6.77493E+02
 -3.69226E+02  1.45566E+03
 -1.48580E+03  9.63902E+02
 -1.43763E+03 -3.13547E+02
  2.32863E+02 -8.33199E+02
  1.14768E+03  5.41900E+02
  6.56948E+01  1.34500E+03
 -9.06833E+02  5.25347E+02
 -3.28002E+02 -6.49825E+02
  1.24014E+03 -7.92603E+02
  2.17085E+03  1.35007E+02
  1.98379E+03  1.53618E+03
  6.86560E+02  2.25853E+03
 -5.72828E+02  1.59133E+03
 -5.32708E+02  1.50686E+02
  3.43498E+02 -2.78405E+02
  9.15054E+02  2.38533E+02
  6.66619E+02  3.59505E+02
  7.04425E+02 -1.33931E+02
  1.24822E+03 -3.01682E+02
  1.69281E+03  5.00383E+02
  1.38352E+03  1.13928E+03
  7.36357E+02  1.21857E+03
  3.78353E+01  8.24800E+02
 -4.08616E+02  1.71981E+02
 -1.82703E+02 -8.35913E+02
  8.25463E+02 -1.40106E+03
  1.55178E+03 -8.97044E+02
  1.51727E+03 -2.34270E+02
  1.12775E+03 -5.33771E+01
  1.06485E+03 -2.04316E+02
  9.89725E+02 -1.81673E+01
  5.88389E+02  3.71860E+02
  1.85431E+01  1.06886E+02
 -1.85866E+02 -6.00351E+02
  2.42444E+02 -1.06721E+03
  7.27525E+02 -9.94888E+02
  1.07678E+03 -4.00345E+02
  7.79251E+02  1.50314E+02
  2.19801E+02  1.69123E+02
 -1.34527E+02 -2.37471E+01
 -2.53513E+02  1.26823E+01
 -6.63990E+02  7.73763E+01
 -1.15644E+03 -2.75279E+02
 -1.28779E+03 -1.13626E+03
 -5.51909E+02 -2.01796E+03
  5.51058E+02 -1.86721E+03
  1.22777E+03 -9.66731E+02
  8.39715E+02  1.03237E+02
 -8.74523E+01  3.27059E+02
 -6.78666E+02 -2.64680E+02
 -1.36689E+02 -8.94880E+02
  5.57599E+02 -7.92813E+02
  6.40538E+02  5.92031E+00
 -1.13166E+02  2.20103E+02
 -2.70944E+02 -1.45451E+02
 -5.00135E+01 -3.63019E+02
  2.61147E+02 -3.86824E+01
  9.18742E+01  3.53288E+02
 -3.81753E+02  5.33364E+02
 -7.13142E+02  2.06061E+02
 -8.81510E+02 -2.55075E+02
 -4.90344E+02 -7.54406E+02
  5.22014E+01 -6.96486E+02
  2.35366E+02 -3.12799E+02
 -1.42604E+02 -1.56083E+02
 -1.62384E+02 -5.34384E+02
  2.90165E+02 -6.47518E+02
  5.72295E+02 -3.45438E+02
  3.68868E+02  3.16042E+01
 -1.19704E+02 -5.14269E+01
  7.04392E+01 -4.22518E+02
  3.94305E+02 -4.35193E+02
  6.67828E+02  4.17304E+01
  3.64627E+02  4.85560E+02
 -2.33638E+02  5.00005E+02
 -5.64784E+02  9.80028E+01
 -4.68750E+02 -3.41217E+02
 -1.05127E+02 -5.30525E+02
  1.18232E+02 -2.88934E+02
 -1.69611E+02 -7.96845E+00
 -3.27037E+02 -3.16479E+02
 -6.66369E+01 -5.98538E+02
  3.83442E+02 -4.33620E+02
  4.18572E+02  5.32615E+01
 -1.35464E+02  3.49225E+02
 -6.20935E+02  1.50917E+01
 -4.98133E+02 -5.86714E+02
  7.49500E+01 -7.45291E+02
  4.50536E+02 -2.92691E+02
  2.65413E+02  4.09860E+02
 -3.92314E+02  4.47868E+02
 -8.98792E+02 -4.50444E+01
 -6.21439E+02 -4.76984E+02
 -1.96348E+02 -6.88128E+02
  7.55956E+01 -3.63391E+02
 -1.89253E+02 -1.87552E+02
 -3.73846E+02 -3.00523E+02
 -1.61363E+02 -4.66648E+02
  1.96844E+02 -3.60218E+02
  3.60580E+02  1.55457E+02
 -1.07676E+01  6.32542E+02
 -5.96708E+02  6.14492E+02
 -8.71999E+02  1.17311E+02
 -6.79727E+02 -3.10872E+02
 -3.33488E+02 -3.59413E+02
 -2.27198E+02 -1.05490E+02
 -2.24696E+02 -8.79448E+01
 -1.72770E+02 -5.72695E+01
 -1.27385E+01  1.89617E+02
 -7.81737E+01  4.05201E+02
 -3.98637E+02  5.90448E+02
 -6.96334E+02  4.03493E+02
 -6.13932E+02 -5.42822E+01
 -3.09959E+02 -2.42093E+02
  1.33254E+02 -1.52845E+02
  2.53379E+02  1.88185E+02
  4.99357E+01  5.93182E+02
 -2.77672E+02  5.88233E+02
 -2.71899E+02  3.59592E+02
 -1.49848E+02  3.63804E+02
 -1.24967E+02  5.47431E+02
 -3.69418E+02  5.57622E+02
 -4.93046E+02  2.76720E+02
 -3.49424E+02 -1.76898E+02
  2.05343E+02 -2.38858E+02
  4.95832E+02  1.98215E+02
  4.29614E+02  5.96249E+02
 -7.41261E+01  6.92656E+02
 -3.82760E+02  3.97943E+02
 -2.48680E+02  1.08417E+02
 -2.81332E+01 -4.32159E+01
  1.58947E+02  6.80121E+01
  6.29795E+01  1.11318E+02
  5.34679E+01  7.48575E+01
  1.89198E+02 -8.62899E+01
  3.86045E+02  6.19723E+01
  4.95567E+02  4.28594E+02
  1.25105E+02  6.23212E+02
 -2.17752E+02  4.48637E+02
 -3.19935E+02  2.43892E+01
  5.07802E+00 -1.96348E+02
  2.92842E+02 -3.34708E+01
  2.84908E+02  3.04084E+02
  1.00838E+02  3.33602E+02
 -3.24131E+01  1.08196E+02
  7.47212E+01  2.64849E+01
  2.80890E+02 -4.97460E+00
  1.71233E+02  1.19911E+02
  1.29502E+02  6.46092E+01
  1.26715E+02 -2.47280E+02
  2.10677E+02 -3.06400E+02
  4.98856E+02 -1.29759E+02
  4.41505E+02  1.68415E+02
  1.33536E+02  1.43092E+02
  5.12464E+01  3.18361E+01
  7.70142E+01 -2.61552E+02
  2.48049E+02 -3.32768E+02
  3.51847E+02 -2.08182E+02
  2.48274E+02  9.68192E+01
  1.21054E+01 -6.23977E+01
 -3.04094E+01 -2.23317E+02
  1.12754E+02 -3.12286E+02
  2.43333E+02 -1.06520E+02
  7.87026E+01  1.13417E+02
 -1.58978E+02 -6.36783E+00
 -2.96509E+02 -1.63246E+02
 -1.11645E+02 -3.60705E+02
  2.18957E+02 -3.10715E+02
  2.12018E+02 -2.69912E+01
 -3.42877E+01  1.52961E+02
 -2.05393E+02  2.81795E+01
 -1.75056E+02 -8.95692E+01
 -7.52654E+01 -1.04486E+02
 -1.15001E+02 -3.21833E+01
 -8.50360E+01 -4.24769E+01
 -1.45055E+02 -1.55324E+02
 -3.48530E+01 -2.15929E+02
  1.57264E+02 -1.88426E+02
  3.08633E+02  7.93131E+01
  1.56265E+02  3.50283E+02
 -1.83072E+02  4.51308E+02
 -2.57491E+02  1.27310E+02
 -1.54398E+02 -8.25971E+01
  5.79429E+01 -7.92784E+01
  1.88480E+02 -1.83965E+00
  1.01057E+02  1.53406E+02
  1.64087E+02  5.07000E+01
  1.85464E+02  1.70012E+01
  2.45138E+02  1.16869E+02
  2.48766E+02  2.23893E+02
  3.93018E+01  2.80032E+02
 -1.81800E+02  6.04957E+00
  3.16260E+01 -2.90758E+02
  2.02603E+02 -2.50944E+02
  3.12027E+02 -1.41542E+01
  1.40255E+02 -7.50562E+01
 -1.66720E+00 -2.06528E+01
 -9.52515E+00 -1.83687E+02
  8.57777E+01 -2.90405E+02
  1.40598E+02 -1.63755E+02
  1.44552E+01 -4.43745E+01
 -1.58820E+02 -1.54386E+02
 -2.40435E+02 -2.95181E+02
 -6.00096E+01 -4.10515E+02
  1.18333E+02 -2.85758E+02
  2.02818E+01 -6.76244E+01
 -1.23630E+02  4.58706E+01
 -2.66888E+02 -5.33561E+01
 -2.33393E+02 -2.40178E+02
 -1.39922E+02 -1.76763E+02
 -2.01312E+02 -1.16988E+02
 -3.08066E+02 -4.86300E+01
 -3.04698E+02 -1.15923E+02
 -2.48618E+02 -2.66811E+02
 -2.00475E+01 -2.31803E+02
 -7.52360E+01  1.18635E+02
 -2.20467E+02  1.98868E+02
 -3.13380E+02  1.18021E+02
 -2.83874E+02 -8.36712E+01
 -5.20148E+01 -1.89332E+02
  5.61796E+01 -5.44001E+01
  7.03210E+01  1.57846E+02
 -1.27201E+02  2.02970E+02
 -2.27818E+02  1.29160E+02
 -1.15141E+02  9.59350E+00
 -2.63437E+01 -1.92622E+01
  1.88749E+01  7.34332E+01
 -3.10534E+01  1.67915E+02
 -1.24857E+02  8.55593E+01
 -2.12483E+01 -4.57934E+01
  1.33590E+02  2.83056E+01
  1.53511E+02  9.54142E+01
  5.27566E+01  1.77934E+02
 -5.60860E+01  1.04864E+02
 -3.27437E+01 -7.66679E+01
  8.85983E+01 -1.08967E+02
  1.57772E+02 -6.56351E+01
  9.68753E+01  8.51019E+01
  7.59657E-01  6.83562E+01
 -4.47553E+01 -8.60812E+01
  6.35698E+01 -2.97348E+01
  8.53225E+01  6.55387E+01
 -3.15245E+01  1.66633E+02
 -1.40680E+02  2.19273E+02
 -1.31088E+02  9.69287E+01
 -3.92492E+01 -4.05054E+01
  1.17915E+02 -1.79493E+01
  8.14695E+01  1.81159E+02
  4.52081E+01  2.46228E+02
 -1.51439E+02  2.27649E+02
 -7.40821E+01  1.13687E+02
 -4.32905E+01  7.30011E+01
  8.11858E+01  1.79388E+02
  4.80299E+00  1.72186E+02
 -9.27175E+01  5.46458E+01
  5.26584E+01 -5.31543E+01
  1.37027E+02 -1.27798E+02
  2.33929E+02  5.94609E+01
  3.03375E+02  6.59307E+01
  8.11843E+01  9.73189E+01
  1.32778E+01 -7.08611E+01
  4.86343E+01 -8.13109E+01
  2.25964E+02 -9.67003E+01
  1.24669E+02 -9.84884E+01
  1.14434E+02 -9.32457E+01
  7.26882E+01 -1.39521E+02
  1.28332E+02 -1.68741E+02
  1.75855E+02 -1.81296E+02
  1.44495E+02 -3.32667E+00
  2.26424E+01 -3.99120E+01
 -7.36920E+01 -1.48889E+02
 -7.67040E+01 -9.42984E+01
  1.74464E+01 -1.93786E+02
 -2.13080E+00 -6.09285E+01
  2.87642E+01 -1.90692E+00
 -1.22187E+02 -2.80770E+01
 -1.38952E+02 -1.10922E+02
 -1.06495E+02 -1.29459E+02
 -4.49989E+01 -1.20443E+01
 -8.09929E+01  9.32224E+01
 -1.23390E+02  8.94942E+01
 -1.73108E+02 -3.73294E+01
 -8.84077E+01 -3.93688E+01
 -7.71962E+00 -2.46083E+01
  3.47204E+01  3.08025E+01
 -4.76805E+00  1.03870E+02
 -9.12630E+01  4.71384E+01
 -1.28470E+02  1.46764E+02
 -4.54027E+01 -2.54593E+01
  8.61490E+00 -1.45051E+00
  4.34908E+00  1.21014E+02
 -1.60071E+01  1.06163E+02
  3.61766E+01  2.73054E+00
  2.52447E+01  7.21274E+01
  8.05694E+01  3.80762E+01
  3.88263E+01  6.17168E+01
  2.35368E+01  1.05000E+02
  5.38646E+01  1.58946E+01
  2.41464E+01 -1.57333E+02
  1.78448E+02 -6.20745E+01
  2.31513E+02 -6.73779E+01
  1.05515E+02  3.56401E+01
 -5.32705E+00 -1.03917E+02
  8.37010E+01 -1.47922E+02
  1.64629E+02 -2.00859E+02
  6.29368E+01 -5.14844E+01
  7.58728E+01 -2.40412E+01
 -8.48969E+01 -9.53302E+01
 -5.68666E+01 -1.54365E+02
  3.84395E+01 -1.88926E+02
  3.42003E+01 -1.30121E+02
  5.16595E+01 -7.14712E+01
  1.52320E+01 -9.04628E+01
 -1.72611E+02 -1.50704E+02
 -1.66625E+02 -1.29561E+02
  3.16777E+01 -9.72611E+01
 -7.64905E+01  4.38518E+00
 -9.11575E+01 -2.78084E+01
  1.90386E+01 -5.31288E+01
 -6.94924E+01 -1.57888E+01
 -1.94370E+01 -2.37940E+01
  4.78908E+01  7.23828E+01
 -5.36658E+01  5.96558E+01
 -4.69818E+01  3.22458E+01
 -1.83247E+01 -1.32343E+01
  2.63036E+01  1.03618E+00
  5.77188E+01 -3.38662E+00
  9.59345E+01  1.07176E+02
  1.44208E+02  7.63854E+01
  8.33392E+01 -1.48783E+01
