 $SEQPAR
 ECHOT = 5.000
 HZPPPM=297.189
 SEQ = 'STEAM'
 $END
 $NMID ID='PATIENT_999_BASELINE_ts2 001', FMTDAT='(2E13.5)'
 TRAMP= 1.00, VOLUME= 1.5000E+01 $END
  1.04313E+04 -8.19342E+03
  1.39987E+04  2.47692E+02
  7.99336E+03  7.52515E+03
  3.89937E+02  6.91490E+03
 -1.36859E+03  2.36443E+03
  4.28495E+02 -1.81839E+01
  1.14877E+03  5.98644E+02
 -2.45740E+00  1.52535E+03
 -1.43370E+03  1.17376E+03
 -2.29306E+03 -5.93898E+02
 -1.67180E+03 -2.25169E+03
 -1.63146E+02 -2.60091E+03
  8.54432E+02 -1.09330E+03
 -3.49894E+02  1.25646E+01
 -2.08598E+03 -7.70786E+02
 -2.05608E+03 -2.67931E+03
 -2.01509E+02 -3.07811E+03
  1.06805E+03 -2.10165E+03
  9.10857E+02 -9.32497E+02
  2.21384E+02 -1.90489E+02
 -3.85776E+02  6.55940E+01
 -3.70190E+02 -3.80131E+02
  1.72758E+02  7.71647E+01
 -6.33870E+02  1.13982E+03
 -2.21562E+03  9.42188E+02
 -2.25489E+03 -8.13109E+02
 -4.24132E+02 -1.48012E+03
  4.61720E+02 -1.94854E+02
 -1.45960E+02  1.08557E+03
 -8.40677E+02  1.23059E+03
 -9.28794E+02  8.47754E+02
 -1.00249E+03  5.10895E+02
 -6.65336E+02  3.82203E+02
 -2.66366E+02  8.66159E+02
 -3.84989E+02  1.39649E+03
 -1.43085E+03  1.18193E+03
 -1.38940E+03  2.94377E+01
 -4.09425E+00 -4.59735E+02
  9.25767E+02  5.25325E+02
  1.17478E+02  1.35733E+03
 -8.64182E+02  7.35364E+02
 -3.52586E+02 -3.50243E+02
  9.85389E+02 -5.77476E+02
  1.88644E+03  1.19949E+02
  2.11954E+03  1.36719E+03
  1.03739E+03  2.34751E+03
 -3.56902E+02  1.85438E+03
 -4.71638E+02  5.37019E+02
  4.26196E+02 -3.21150E+02
  9.55425E+02  1.69521E+02
  8.17401E+02  2.64305E+02
  7.88248E+02 -1.07609E+02
  1.40188E+03 -2.59998E+02
  1.79806E+03  3.24474E+02
  1.50067E+03  1.00452E+03
  8.94491E+02  1.03666E+03
  2.29878E+02  8.35253E+02
 -3.13528E+02  1.48968E+02
 -3.04317E+02 -9.79808E+02
  6.51865E+02 -1.52407E+03
  1.60268E+03 -1.07579E+03
  1.44453E+03 -3.72159E+02
  1.03641E+03 -1.61122E+02
  1.09730E+03 -3.28789E+02
  1.10313E+03 -5.14726E+01
  6.41515E+02  3.24893E+02
  5.20685E+01  8.43294E+01
 -8.35012E+01 -5.94424E+02
  1.38927E+02 -1.13101E+03
  7.00092E+02 -1.04480E+03
  1.04742E+03 -6.55762E+02
  8.07161E+02  1.06350E+00
  3.53019E+02  2.11863E+02
 -1.32305E+02  1.07388E+02
 -2.79978E+02 -7.54812E+01
 -5.53014E+02  1.14887E+01
 -1.09978E+03 -3.60370E+02
 -1.29027E+03 -1.17955E+03
 -5.64958E+02 -1.94892E+03
  5.33514E+02 -1.93287E+03
  1.18752E+03 -1.04673E+03
  9.84619E+02  3.59649E+01
  3.43207E+01  3.22860E+02
 -6.26149E+02 -1.60235E+02
 -2.94377E+02 -8.74133E+02
  3.89098E+02 -7.71643E+02
  5.83997E+02 -1.40711E+02
  4.73605E+01  3.36610E+02
 -2.96865E+02  5.60169E+00
 -1.10879E+02 -1.98964E+02
  2.86968E+02 -3.89148E+01
  1.10212E+02  5.31337E+02
 -4.13024E+02  5.91123E+02
 -7.93771E+02  3.47492E+02
 -9.40317E+02 -2.05196E+02
 -5.36681E+02 -6.57946E+02
 -9.25190E+01 -4.87622E+02
  7.39382E+01 -1.57990E+02
 -1.75179E+02 -8.56333E+01
 -1.28233E+02 -4.16565E+02
  2.01718E+02 -5.64170E+02
  3.95192E+02 -2.78341E+02
  3.35549E+02  3.00172E+01
  3.13215E+01 -1.65552E+01
  6.86212E+01 -1.96029E+02
  5.26254E+02 -4.23867E+02
  7.67364E+02  2.86080E+01
  5.43319E+02  5.81660E+02
 -4.06679E+01  5.98777E+02
 -4.88159E+02  1.29614E+02
 -3.76613E+02 -4.11509E+02
  8.08026E+01 -5.39868E+02
  1.54517E+02 -3.08169E+02
  2.61260E+01 -1.61128E+02
 -1.69985E+02 -4.55865E+02
  1.07473E+01 -8.08103E+02
  4.65385E+02 -6.63455E+02
  4.19102E+02 -7.05702E+01
 -7.96986E+01  1.72320E+02
 -5.53005E+02 -1.52357E+02
 -5.64091E+02 -6.62735E+02
 -3.02311E+01 -8.29179E+02
  3.94926E+02 -4.63110E+02
  2.51992E+02  1.90170E+02
 -4.55709E+02  3.90597E+02
 -9.99320E+02 -1.13696E+02
 -8.92355E+02 -5.99015E+02
 -2.99496E+02 -7.07049E+02
 -9.28543E+01 -3.85054E+02
 -2.47845E+02 -1.64571E+02
 -4.05494E+02 -1.83195E+02
 -2.26275E+02 -4.36856E+02
  2.08054E+02 -2.46133E+02
  3.51806E+02  2.34011E+02
 -6.16993E+01  6.92483E+02
 -6.46381E+02  6.69130E+02
 -9.38178E+02  1.15774E+02
 -6.15140E+02 -2.16455E+02
 -2.89258E+02 -2.66966E+02
 -1.39997E+02 -1.54649E+02
 -1.28507E+02 -9.32845E+01
 -3.56213E+01 -8.05187E+01
  3.21526E+01  1.21529E+02
 -4.69699E+01  4.56744E+02
 -3.07209E+02  5.62979E+02
 -6.74206E+02  2.78796E+02
 -6.95042E+02 -8.84257E+01
 -3.85257E+02 -4.45254E+02
  1.22366E+02 -1.88800E+02
  2.50407E+02  1.27370E+02
 -7.13138E+00  5.17786E+02
 -2.24070E+02  4.63862E+02
 -3.03813E+02  2.71033E+02
 -2.13133E+02  3.38107E+02
 -1.72826E+02  4.95316E+02
 -4.64030E+02  5.17556E+02
 -6.54329E+02  1.81369E+02
 -4.01311E+02 -2.64076E+02
  9.06831E+01 -3.29607E+02
  3.76439E+02  8.93655E+01
  1.79916E+02  5.68473E+02
 -2.05336E+02  6.65166E+02
 -5.73584E+02  3.78106E+02
 -3.27938E+02 -4.66656E+01
 -2.81276E+01 -7.53484E+01
  1.36577E+02  1.76505E+02
  1.03355E+02  2.96215E+02
 -2.84102E+01  1.40531E+02
  2.33131E+02  1.41140E+01
  4.37714E+02  2.22834E+02
  4.67884E+02  4.69253E+02
  1.49706E+02  6.33885E+02
 -1.84450E+02  4.82709E+02
 -2.39190E+02  3.63157E+01
  5.14465E+01 -1.20783E+02
  3.83409E+02  2.72835E+00
  3.20315E+02  1.97567E+02
  3.99761E+01  2.72327E+02
 -9.35643E+01  4.37678E+00
  5.94576E+01 -1.32647E+02
  1.82187E+02 -8.38365E+01
  1.24415E+02  4.06671E+01
 -1.20234E+01  2.53920E-01
 -1.45301E+02 -2.66733E+02
  1.93807E+02 -3.45041E+02
  3.42371E+02 -1.49755E+02
  2.71818E+02  2.08560E+02
  3.00074E+01  1.22957E+02
 -1.19156E+02  4.64993E+00
 -3.06980E+01 -6.36590E+01
  2.14661E+02 -1.72936E+02
  3.33205E+02  6.66208E+01
  2.06700E+02  2.46430E+02
  1.10910E+01  2.47690E+02
  2.58058E+01  3.95163E+01
  1.85576E+02 -1.40447E+01
  2.61043E+02  1.57374E+02
  9.21138E+01  2.99497E+02
 -1.26329E+02  2.24262E+02
 -1.36367E+02 -7.77530E+01
  1.31877E+02 -1.94433E+02
  3.56458E+02 -1.29263E+02
  3.09956E+02  1.53624E+02
  5.31281E+01  2.75265E+02
 -1.36874E+02  2.20308E+02
 -5.88868E+01 -6.54723E+00
  8.67503E+01 -9.26097E+00
  4.20028E+01  3.75181E+01
 -8.08372E+01  9.10166E+01
 -2.73706E+00 -7.08544E+01
  4.49203E+01 -2.38231E+02
  3.48003E+02 -1.19737E+02
  5.31930E+02  1.03075E+02
  1.80628E+02  3.93734E+02
 -1.22744E+02  2.93203E+02
 -1.60221E+02  3.59649E+01
 -1.00271E+02 -1.96015E+02
  1.32433E+02 -7.84944E+01
  1.25680E+02 -4.41583E+01
  1.68432E+02  3.36076E+01
  5.08311E+01 -2.40551E+01
  1.53141E+02 -1.39666E+02
  2.47694E+02 -8.20455E+01
  1.31978E+02  1.28138E+02
 -1.42626E+02  2.56671E+01
 -1.01429E+02 -2.42575E+02
  5.70956E+01 -3.80723E+02
  2.24862E+02 -3.65271E+02
  2.78091E+02 -1.75691E+02
  1.77782E+02 -1.15827E+02
  5.30107E+01 -1.56932E+01
 -2.70964E+01 -1.87223E+02
 -2.31218E+01 -2.41365E+02
  6.87391E+01 -1.30588E+02
 -7.02801E+01  3.14879E+00
 -2.65457E+02 -1.72991E+02
 -2.53140E+02 -2.85325E+02
 -1.95456E+01 -4.19220E+02
  8.59042E+01 -2.40329E+02
  8.86711E+01  6.05948E+01
 -1.30499E+02  5.83634E+01
 -2.22588E+02 -5.13223E+01
 -1.76266E+02 -9.97860E+01
 -7.87422E+01 -8.25232E+01
 -6.72636E+01 -3.59976E+01
 -9.73743E+01 -4.92793E+01
 -2.22426E+02 -1.06123E+02
 -1.36075E+02 -1.43186E+02
  5.94501E+01 -4.87617E+01
  4.03601E+01  1.80364E+02
 -1.63604E+02  2.78790E+02
 -2.40661E+02  6.99377E+01
 -9.91428E+01 -1.64538E+01
 -1.65472E+01 -6.98072E+01
  1.90285E+02  1.16352E+02
  1.57591E+02  2.33357E+02
 -6.77782E+01  1.95047E+02
 -1.24972E+02  1.79115E+02
 -4.92564E+01  1.24579E+01
  7.13302E+01  1.65779E+01
  1.02360E+02  5.09848E+01
 -5.21224E+01  1.99016E+02
  1.37152E+01  3.79793E+01
  1.34684E+01 -1.02744E+02
  1.57998E+02 -2.19738E+01
  6.29078E+01  1.10405E+02
 -5.30507E+01  9.08185E+01
 -5.86383E+01 -1.78832E+01
 -2.54277E+00 -2.00995E+02
  2.81594E+01 -2.19205E+02
  2.22119E+01 -8.13451E+01
  3.77511E+00  6.60644E+01
 -1.58266E+01  2.04471E+01
 -7.69532E+01 -1.04678E+01
 -6.26874E+00 -8.02613E+01
  5.73849E+01  3.15970E+01
 -2.15858E+01  1.38511E+02
 -1.65863E+02  1.44349E+02
 -1.80625E+02  2.70321E+01
 -1.40088E+01 -1.96085E+02
  8.66808E+01 -2.72908E+01
  1.05935E+02  1.06625E+02
  4.87140E+00  1.97330E+02
 -7.99039E+01  8.35784E+01
 -1.02008E+02  8.05761E+01
  1.28215E+01  6.11119E+01
 -1.01334E+01  7.50552E+01
 -1.39325E+02  1.00362E+02
 -6.74726E+01 -9.12451E+00
 -3.37835E+01 -9.16722E+01
  1.26850E+02 -5.84710E+01
  1.76095E+02  4.07246E+01
  1.23348E+02  1.32727E+02
 -2.23185E+00  2.04516E+02
 -6.54221E+01  9.01908E+01
  4.09669E+00 -6.75189E+01
  1.08431E+02 -9.51536E+01
  1.06215E+02 -2.65228E+01
  7.88566E+01 -6.07568E+01
  1.22450E+00 -8.47682E-01
  6.08350E+01 -1.13942E+02
  9.91216E+01 -9.30952E+01
  1.97004E+02 -5.28310E+00
 -6.71967E+01  8.51454E+01
 -1.13501E+02 -8.73459E+01
 -2.23520E+01 -2.82338E+02
  5.98176E+01 -2.24137E+02
  1.17656E+02 -1.17727E+01
  4.12494E+01 -7.14378E+01
 -2.34792E+01  2.39154E+01
 -2.06525E+01 -8.82566E+01
 -3.82949E+01 -1.98447E+02
  1.66181E+01 -3.58297E+01
  4.97235E+01 -4.24583E+01
 -2.17303E+02 -1.78660E+01
 -8.94150E+01 -4.76006E+01
 -7.64169E+01 -1.10183E+02
  1.27930E+01 -1.17210E+02
 -6.04536E+00  1.51362E+01
  3.82474E+01  2.16190E+02
 -8.49146E+00  1.04618E+02
 -8.53163E+01  1.25037E+01
 -1.62825E+01 -2.08189E+01
  7.89799E+01  4.04690E+01
  4.17720E+01  1.00997E+02
 -3.39852E+00  2.55856E+01
  1.62730E+01 -3.98140E+01
  1.63419E+01 -8.06441E+01
  4.14549E+01  7.33565E+01
  8.12412E+01  1.60619E+02
 -1.65348E+00  8.51835E+00
  2.29973E+01 -7.31011E+01
  1.40246E+02 -8.89557E+01
  2.51232E+02 -6.43416E+00
  1.43711E+02  2.01123E+01
  5.34443E+01 -2.00604E+01
  1.29543E+01 -8.33362E+01
 -2.09147E+01 -1.08392E+02
  1.24472E+02 -1.36439E+02
  3.13921E+01 -1.60853E+02
  4.27761E+01 -1.59254E+02
 -4.10324E+01 -1.14941E+02
 -2.07387E+01 -2.23100E+02
  8.47533E+01 -2.36229E+02
  1.53146E+02 -1.13721E+02
  6.96946E+01 -1.36071E+02
 -3.00294E+01 -1.34744E+02
 -3.99931E+01 -1.28720E+02
  4.37466E+01 -5.03369E+01
  9.58253E+00 -1.00632E+02
 -6.60636E+01 -4.58687E+01
 -2.93751E+01  1.01868E+01
 -4.37135E+01 -6.70292E+01
 -3.39244E+01 -3.08282E+01
  6.31639E+01 -7.33049E+01
 -5.57625E+01  1.38244E+01
 -3.44731E+01  6.40666E+01
 -7.65550E+01 -5.09448E+01
  2.28098E+01 -2.37840E+01
  5.87484E+01 -1.14168E+02
  4.89154E+01  5.65818E+01
  7.41776E+01 -2.08724E+01
  2.87427E+01  6.87445E+01
  4.23656E+00 -8.24757E+01
