 $SEQPAR
 ECHOT = 5.000
 HZPPPM=297.189
 SEQ = 'STEAM'
 $END
 $NMID ID='PATIENT_999_BASELINE_ts5 001', FMTDAT='(2E13.5)'
 TRAMP= 1.00, VOLUME= 1.5000E+01 $END
  1.11152E+04 -7.23643E+03
  1.40285E+04  1.43849E+03
  7.34664E+03  8.26717E+03
 -3.51987E+02  6.79287E+03
 -1.57384E+03  2.10799E+03
  5.14418E+02 -1.43493E+02
  1.21488E+03  6.05075E+02
 -2.59725E+01  1.52621E+03
 -1.51742E+03  1.03216E+03
 -2.20577E+03 -8.98624E+02
 -1.48708E+03 -2.43803E+03
  2.41610E+02 -2.59776E+03
  1.10066E+03 -1.12848E+03
 -2.12333E+02 -6.48748E+01
 -1.97492E+03 -1.03263E+03
 -1.72786E+03 -2.79062E+03
  1.30698E+02 -3.01842E+03
  1.18129E+03 -1.99355E+03
  9.77000E+02 -9.21967E+02
  2.87264E+02 -2.29854E+02
 -2.86963E+02 -1.23515E+00
 -2.51887E+02 -4.06464E+02
  2.02964E+02 -8.62120E+01
 -5.17421E+02  9.48633E+02
 -2.18297E+03  8.45977E+02
 -2.20150E+03 -1.06210E+03
 -3.48004E+02 -1.68423E+03
  5.06260E+02 -4.18899E+02
 -1.09302E+02  9.81255E+02
 -9.02205E+02  9.25176E+02
 -1.04006E+03  5.54986E+02
 -1.00772E+03  2.50832E+02
 -7.38146E+02  1.56112E+02
 -2.80950E+02  5.11381E+02
 -4.96637E+02  1.20837E+03
 -1.42797E+03  9.65647E+02
 -1.56440E+03 -2.26109E+02
 -1.40735E+02 -7.24411E+02
  7.38499E+02  3.53573E+02
 -1.95899E+01  1.27635E+03
 -1.05881E+03  5.54445E+02
 -6.45042E+02 -4.87892E+02
  8.29696E+02 -7.59017E+02
  1.84663E+03 -5.37199E+01
  1.91390E+03  1.28818E+03
  8.58310E+02  2.33475E+03
 -4.89424E+02  1.78793E+03
 -7.43937E+02  4.59530E+02
  1.88068E+02 -1.55480E+02
  7.38662E+02  2.39045E+02
  5.46326E+02  3.94492E+02
  5.19165E+02 -1.63708E+02
  1.22362E+03 -2.72740E+02
  1.61159E+03  4.35481E+02
  1.37715E+03  1.06310E+03
  7.56877E+02  1.15362E+03
  3.56957E+01  9.42408E+02
 -5.75492E+02  3.69940E+02
 -5.09519E+02 -5.94262E+02
  4.03735E+02 -1.38844E+03
  1.42554E+03 -1.00900E+03
  1.39818E+03 -2.53010E+02
  9.64064E+02 -2.52724E+01
  9.72005E+02 -2.39964E+02
  1.10370E+03 -2.26688E+01
  6.99250E+02  3.50787E+02
  1.00983E+02  2.98698E+02
 -1.46548E+02 -3.05270E+02
  1.00506E+02 -9.82482E+02
  6.80791E+02 -1.05088E+03
  1.11499E+03 -4.70875E+02
  8.46511E+02  7.97816E+01
  3.73223E+02  2.37753E+02
 -2.99738E+01  1.21560E+02
 -9.66207E+01  9.73375E+01
 -5.26572E+02  2.37784E+02
 -1.16329E+03 -1.19931E+02
 -1.31897E+03 -1.07589E+03
 -7.01649E+02 -1.91724E+03
  3.21850E+02 -2.00659E+03
  1.05380E+03 -1.22481E+03
  9.60100E+02 -1.78582E+02
  1.19427E+02  2.76031E+02
 -5.64767E+02 -1.58704E+02
 -2.87256E+02 -9.00730E+02
  3.58987E+02 -8.79080E+02
  6.49394E+02 -1.47084E+02
  1.58553E+02  2.46432E+02
 -2.70609E+02  5.46323E-01
 -1.79716E+02 -3.16318E+02
  2.75803E+02 -8.23444E+01
  2.21136E+02  3.83966E+02
 -2.20416E+02  6.73163E+02
 -7.53807E+02  4.56728E+02
 -1.05744E+03 -9.14144E+01
 -7.27453E+02 -6.09776E+02
 -1.37095E+02 -5.66503E+02
  4.60740E+01 -2.49611E+02
 -3.06467E+02 -6.86174E+01
 -3.19063E+02 -3.23731E+02
  3.41510E+01 -5.28135E+02
  4.51350E+02 -2.83119E+02
  3.01054E+02  1.36267E+02
 -4.10138E+01  9.36588E+01
  2.29510E+01 -3.56673E+02
  3.99518E+02 -3.56198E+02
  7.49995E+02 -7.72035E+00
  5.70936E+02  4.60182E+02
  3.12218E+01  6.74009E+02
 -4.26621E+02  3.74682E+02
 -5.59622E+02 -1.77548E+02
 -9.05600E+01 -4.51062E+02
  9.84560E+01 -1.72669E+02
 -5.25388E+01  2.82027E+01
 -3.25825E+02 -1.88283E+02
 -8.92916E+01 -5.47822E+02
  4.06975E+02 -5.62698E+02
  5.59800E+02 -4.17448E+01
  6.61327E+00  3.41523E+02
 -5.22055E+02  1.09362E+02
 -6.18589E+02 -5.02878E+02
 -7.42764E+01 -7.73227E+02
  4.68058E+02 -5.12678E+02
  3.85137E+02  1.63739E+02
 -1.99909E+02  4.18799E+02
 -7.10609E+02  1.18557E+02
 -7.22478E+02 -4.55638E+02
 -3.49483E+02 -6.51570E+02
  2.25545E+01 -4.42347E+02
 -6.82484E+01 -2.36822E+02
 -2.93866E+02 -3.32551E+02
 -1.41121E+02 -5.61241E+02
  2.79398E+02 -5.07328E+02
  5.24205E+02 -1.00706E+02
  1.58513E+02  4.67451E+02
 -4.35127E+02  5.68098E+02
 -7.23538E+02  1.41728E+02
 -7.14431E+02 -2.21749E+02
 -4.29184E+02 -4.44486E+02
 -2.79514E+02 -2.51567E+02
 -2.84377E+02 -1.27371E+02
 -2.01587E+02 -1.83312E+02
  9.18194E+00 -7.45627E+01
 -9.58710E+01  3.41939E+02
 -3.80021E+02  5.65223E+02
 -7.04494E+02  4.19441E+02
 -8.57486E+02 -1.47167E+01
 -5.96452E+02 -2.91515E+02
 -1.17424E+02 -2.78593E+02
  1.99182E+02  5.09733E+01
  1.43430E+02  4.63377E+02
 -2.07832E+02  5.33660E+02
 -2.48892E+02  3.61991E+02
 -9.53648E+01  3.36769E+02
 -2.29377E+01  5.56320E+02
 -2.80866E+02  6.69418E+02
 -5.56638E+02  4.68486E+02
 -4.55919E+02  7.85165E+00
  1.44967E+02 -2.04799E+02
  5.33620E+02  4.27985E+01
  5.68554E+02  5.84328E+02
  1.77325E+02  8.73759E+02
 -2.42491E+02  6.20954E+02
 -2.75894E+02  2.01623E+02
  2.14015E+01  2.35333E+00
  2.37947E+02  7.45372E+01
  2.38851E+02  2.17464E+02
  1.12662E+02  1.70419E+02
  2.05831E+02  3.53841E+01
  4.97230E+02  4.72344E+01
  5.34862E+02  2.95847E+02
  3.77644E+02  6.02976E+02
 -6.76170E+01  5.78812E+02
 -2.56100E+02  2.79715E+02
 -3.56179E+01 -2.03903E+02
  2.04234E+02 -1.40499E+01
  3.42106E+02  2.32705E+02
  9.20566E+01  3.13608E+02
 -1.05307E+02  1.63151E+02
  8.41617E+00 -7.19846E+01
  1.21262E+02  3.97710E+01
  8.68598E+01  4.36433E+01
 -1.82756E+01  1.03430E+02
  6.06851E+00 -1.19041E+02
  1.31662E+02 -2.71667E+02
  4.26280E+02 -2.02396E+02
  3.94803E+02  3.35132E+01
  2.82435E+02  2.15251E+02
  1.39652E+01  1.41803E+02
 -6.92767E+01 -1.13624E+02
  1.85965E+02 -2.17667E+02
  3.96293E+02 -1.74067E+02
  3.25394E+02  1.19500E+02
  1.02128E+02  8.81488E+01
  6.89179E+01 -1.10540E+01
  1.66274E+02 -1.58559E+02
  2.96060E+02 -4.91837E+01
  2.52224E+02  1.12245E+02
 -1.66922E+01  1.95396E+02
 -2.29089E+02 -1.04643E+02
 -5.66853E+01 -3.64887E+02
  2.85278E+02 -4.24237E+02
  3.44713E+02 -1.05216E+02
  1.00854E+02  1.62257E+02
 -1.50547E+01  7.70304E+01
 -2.67904E+01 -5.29407E+01
 -3.87752E+01 -8.91089E+01
 -1.76904E+01 -1.36431E+02
 -4.62630E+01 -6.79633E+01
 -5.87201E+01 -2.11101E+02
  1.76438E+01 -3.76612E+02
  2.34326E+02 -4.05671E+02
  4.20634E+02 -2.22508E+02
  3.85333E+02  1.48836E+02
  4.55479E+01  2.21211E+02
 -2.13969E+02  1.43223E+02
 -1.75541E+02 -1.84761E+02
 -8.44584E+01 -3.00273E+02
  1.44033E+02 -1.75030E+02
  7.47570E+01 -1.21018E+02
  1.45848E+01 -1.08786E+02
  4.20764E+01 -1.74269E+02
  1.96888E+02 -2.43596E+01
  1.39555E+02  1.19845E+02
 -8.40565E+01  1.10187E+02
 -2.72014E+02 -4.06118E+01
 -2.79362E+02 -2.23965E+02
 -5.58576E+01 -3.07561E+02
  1.00721E+02 -2.29619E+02
  1.35358E+02  4.79609E+01
  2.46881E+01  3.19759E+01
 -1.38981E+02 -8.08080E+01
 -1.26849E+01 -1.01364E+02
  1.02867E+02 -1.19440E+02
 -2.86870E+01 -1.05515E+01
 -1.69962E+02  6.05873E+01
 -2.53794E+02 -1.82837E+02
 -9.25005E+01 -3.17491E+02
  1.76321E+02 -2.63500E+02
  1.83924E+02 -8.59622E+01
  2.78188E+01  8.69202E+00
 -9.88685E+01  2.93106E+01
 -1.85996E+02 -7.36074E+01
 -7.38504E+01 -8.31517E+01
 -8.96378E+00 -3.01026E+01
 -1.00104E+02 -8.06162E+01
 -1.49585E+02 -2.76942E+01
 -1.16905E+02 -2.04902E+02
  6.95675E+01 -1.42558E+02
  1.23383E+02 -5.53798E+01
  4.68239E+01  1.39782E+02
 -1.98419E+02  1.65540E+02
 -1.68943E+02 -1.04972E+02
 -7.16139E+01 -1.91193E+02
  8.62014E+01 -1.28650E+02
  1.31554E+02  9.62542E+01
  5.60262E-01  1.63566E+02
 -1.72454E+02  1.07717E+02
 -5.31897E+01  3.17599E+00
 -3.41499E+01  1.93561E-01
  1.23355E+01  1.28205E+02
  2.56632E+01  1.06073E+02
 -1.42439E+02  7.10368E+01
 -1.30910E+02 -2.99090E+01
  6.64214E+01 -7.72150E+01
  1.15802E+02  1.60969E+02
  4.42145E+01  1.79077E+02
 -8.99507E+01  1.32074E+02
 -1.76406E+02  1.13145E+02
 -7.43797E+01 -4.60746E+01
  6.30789E+01  6.09368E+01
  4.77377E+01  2.15309E+01
  4.63599E+01  4.46107E+01
 -9.60562E+01  2.87319E+01
 -3.60534E+01 -6.53408E+01
  4.06456E+01  3.46979E+01
  4.95641E+01  1.66845E+02
 -1.35005E+02  2.26247E+02
 -1.49200E+02  9.61337E+01
 -1.40989E+02 -1.34918E+01
  1.45974E+01 -6.15982E+01
  1.58882E+02  9.98458E-01
  7.41328E+01  1.56899E+02
  2.76823E+01  1.79180E+02
 -1.27849E+02  7.32709E+01
 -4.81732E+01  1.04483E+01
  8.51670E+01  6.78668E+01
  2.64250E+01  7.97911E+01
 -5.25431E+01  8.70303E+01
 -1.56879E+01 -5.19554E+01
  9.92367E+01 -1.47095E+02
  2.64348E+02 -9.58954E+01
  2.64363E+02 -3.20475E+01
  1.66863E+02  1.01040E+02
  2.07449E+01  4.85241E+01
 -4.16395E+01 -8.53010E+01
  8.39347E+01 -1.11107E+02
  1.44176E+02 -1.18523E+02
  8.09194E+01  2.75770E+01
  1.08241E+02  2.47150E+01
  1.62296E+01 -9.94887E+01
  1.26277E+02 -7.68275E+01
  1.22769E+02 -6.15376E+01
  4.49243E+00  3.90825E+01
 -3.02419E+00  6.01256E+01
 -3.11882E+01 -5.41255E+01
  6.89338E+01 -1.97711E+02
  6.87082E+01 -9.20652E+01
  3.56682E+01 -5.31515E+01
  1.94601E+00  5.97862E+01
 -7.04770E+01 -2.32423E+01
 -2.91784E+00 -9.30033E+01
  1.50831E+01 -9.22967E+01
  4.22595E+01  8.26930E+01
  5.59930E-02  8.63624E+01
 -1.56233E+02 -3.97093E+01
 -9.58203E+01 -7.89254E+01
 -7.81367E-01 -1.03999E+02
  1.18401E+02 -7.94800E+01
  8.04586E+01  3.49608E+01
 -1.56308E+01  7.31772E+01
 -1.02549E+02  4.84598E+01
  9.46730E+00 -7.27741E+01
 -6.86568E+01 -3.91215E+01
 -9.64185E+00  7.27399E+01
 -9.83402E+01  6.30490E+01
 -7.68921E+01  1.41510E+01
 -3.72434E+01 -2.06723E+01
 -3.00142E+01 -7.43044E+01
  5.12871E+01  2.39361E+01
 -7.03824E+01  3.60424E+01
 -1.04143E+02 -2.56069E+01
 -1.08417E+01 -1.54604E+02
  2.27836E+01 -1.73607E+02
  2.28959E+01 -3.18022E+00
 -1.40660E+01  6.95278E+00
 -3.28316E+01  1.18375E+02
 -9.62560E+01 -2.26979E+01
 -3.31589E+01 -7.38097E+01
  4.69042E+01 -1.17496E+01
  4.92177E+01  2.67489E+01
  8.60088E+00  1.81813E+01
 -4.81439E+01 -1.01930E+02
 -1.88994E+01 -1.38599E+02
 -1.99512E+01 -3.88635E+01
  7.14568E+01  3.72766E+01
 -5.48940E+01  4.71809E+01
 -5.63900E+01 -2.58361E+01
 -3.96047E+01 -6.05989E+01
 -6.22174E+01 -9.57083E+01
 -1.14106E+00 -6.30106E+01
  5.47835E+01  5.90192E+01
 -2.62453E+01  1.53360E+01
 -1.34616E+01 -4.96503E+00
 -5.18083E+01 -6.42206E+01
  8.36669E+01 -2.68533E+00
 -5.95313E+00  5.34425E+01
 -5.33434E+01  9.74344E+01
 -1.73066E+01 -3.26152E+01
  3.77112E+01 -1.12557E+02
  1.21994E+02  1.15593E+01
  1.22497E+02  4.20902E+01
  7.17453E+01  7.97718E+01
  3.72412E+01  6.03329E+01
